time,temp
1950,0.2
1951,0.2046260133720109
1952,0.20935123312214257
1953,0.21418754215073657
1954,0.21911175040108802
1955,0.22410958630915123
1956,0.22915754966805646
1957,0.23423962394739534
1958,0.23939760614979297
1959,0.24468532061030968
1960,0.25022390471313055
1961,0.2558889618344547
1962,0.26163852634193924
1963,0.2675419354239445
1964,0.2735997645091667
1965,0.2798315358386788
1966,0.2862469794422691
1967,0.29281029653094526
1968,0.29952164965083333
1969,0.30645730559632184
1970,0.3137493810650003
1971,0.32137385432589227
1972,0.3291504838811954
1973,0.33703551190487335
1974,0.3450658178356774
1975,0.3532272399519324
1976,0.3615058243677203
1977,0.3699380978303433
1978,0.3786177593307464
1979,0.3876103309954543
1980,0.39684125304910317
1981,0.40628317105384104
1982,0.4160356165312579
1983,0.42610996901353826
1984,0.43658596648941017
1985,0.44756729288987523
1986,0.4590975544985303
1987,0.47119153318650514
1988,0.4839195261623724
1989,0.497392869883236
1990,0.5116107824527696
1991,0.5265527300610351
1992,0.5421219376423285
1993,0.5583270088536195
1994,0.5751733530115998
1995,0.5926847083808217
1996,0.6108028365465458
1997,0.6292477155588521
1998,0.6478321123152047
1999,0.6665880083390479
2000,0.685451201109805
2001,0.7045404364646677
2002,0.7240015756521868
2003,0.7438277578471606
2004,0.7640022641240901
2005,0.7845901617322528
2006,0.8057570584874651
2007,0.8275294579645566
2008,0.8498396826543754
2009,0.8727625950712102
2010,0.8961238942337962
2011,0.9197904536846591
2012,0.9437157491313417
2013,0.9678921002020684
2014,0.9922998452195693
2015,1.0169321359711203
2016,1.0417673808191015
2017,1.066804715275966
2018,1.0920392583451952
2019,1.1174671304974952
2020,1.1431160914651985
2021,1.1690288127224262
2022,1.195229494401133
2023,1.2217214845326274
2024,1.248507598281216
2025,1.275588977736282
2026,1.3029673092522163
2027,1.3306420478881729
2028,1.3586112212583978
2029,1.386872902675131
2030,1.415443402342997
2031,1.444374838014394
2032,1.4736858261995351
2033,1.5033651159289334
2034,1.5334016387301062
2035,1.5637828049263267
2036,1.5945018335703314
2037,1.6255482789777547
2038,1.6569126938226342
2039,1.6885856399629333
2040,1.720544474592767
2041,1.7527633918786871
2042,1.785224263600085
2043,1.8179170107732099
2044,1.8508331202591664
2045,1.883964440982576
2046,1.9173033605973697
2047,1.9508371248671468
2048,1.9845548329273461
2049,2.0184465251641304
2050,2.052474544078887
2051,2.086588742954916
2052,2.1207631820820287
2053,2.1549951922686565
2054,2.189282179999309
2055,2.2236217958440587
2056,2.258008287911017
2057,2.292433392902809
2058,2.3268894209538837
2059,2.3613702410850035
2060,2.3958599761146386
2061,2.4303413277396446
2062,2.4648004146673976
2063,2.4992296861763523
2064,2.533621508089858
2065,2.567967104528772
2066,2.6022627735059523
2067,2.6365050207718084
2068,2.670690572827593
2069,2.7048159952112036
2070,2.7388704349457194
2071,2.77283905431069
2072,2.8067086427703805
2073,2.8404702021997155
2074,2.8741152049139553
2075,2.907635348560669
2076,2.9410253636073187
2077,2.974273711256698
2078,3.007370124380378
2079,3.0403046661625166
2080,3.073076091406825
2081,3.105714454881673
2082,3.138228616525108
2083,3.1706116226347087
2084,3.202856524534905
2085,3.2349523821443236
2086,3.2668967793729315
2087,3.298681514066033
2088,3.330297305751466
2089,3.3617370275579903
2090,3.392972128911441
2091,3.4239702275564103
2092,3.4547109732914967
2093,3.4851897178436664
2094,3.5154024663492085
2095,3.54534034544345
2096,3.5750056113500635
2097,3.604392633752154
2098,3.6334957106436225
2099,3.6623096510514843
2100,3.6908142850869963
