time,temp
1950,0.2
1951,0.2046260133720109
1952,0.20935123312214257
1953,0.21418754215073657
1954,0.21911175040108802
1955,0.22410958630915123
1956,0.22915754966805646
1957,0.23423962394739534
1958,0.23939760614979297
1959,0.24468532061030968
1960,0.25022390471313055
1961,0.25588896124925137
1962,0.26163852534827126
1963,0.26754193409810656
1964,0.2735997619830699
1965,0.27983153196996363
1966,0.28624697415267547
1967,0.2928102889713446
1968,0.29952164000479137
1969,0.30645729412370554
1970,0.3137493684578319
1971,0.32137384080266324
1972,0.3291504699540135
1973,0.33703549776145375
1974,0.34506580406630144
1975,0.35322722600510253
1976,0.36150581156750994
1977,0.36993808703195974
1978,0.37861774993862085
1979,0.3876103231657101
1980,0.3968412468767348
1981,0.4062831651690069
1982,0.41603560905439113
1983,0.4261099587036244
1984,0.4365859519137526
1985,0.4475672739520039
1986,0.4590975316781427
1987,0.4711915061504284
1988,0.48391949491393343
1989,0.497392835057577
1990,0.5116108599167639
1991,0.5265531402961631
1992,0.5421229916799394
1993,0.5583291019598215
1994,0.5751769604296966
1995,0.5926903978180444
1996,0.6108112430696607
1997,0.6292595418757795
1998,0.6478481311628213
1999,0.6666090709309734
2000,0.6854782088274975
2001,0.7045743870585004
2002,0.7240435618502565
2003,0.7438789646084681
2004,0.7640639410119259
2005,0.7846636239377
2006,0.8058437026130332
2007,0.8276306866549255
2008,0.8499569090771092
2009,0.8728974354011882
2010,0.896277889930015
2011,0.9199651560656322
2012,0.9439119280524332
2013,0.9681087856202502
2014,0.9925336895557644
2015,1.017179878323812
2016,1.0420258300448577
2017,1.0670699198360363
2018,1.0923060672554938
2019,1.1177287955951922
2020,1.1433527670960895
2021,1.1692067070228052
2022,1.1953028384690756
2023,1.2216340227343774
2024,1.2481938951884266
2025,1.274976863246937
2026,1.3019772033822479
2027,1.3291877957117004
2028,1.3566008409754335
2029,1.3842092347385375
2030,1.4120344019915392
2031,1.4401326703173487
2032,1.4685266401741097
2033,1.4972088746457632
2034,1.5261719937656246
2035,1.5554058703718898
2036,1.5849073930997726
2037,1.614669664046264
2038,1.6446866774694369
2039,1.6749523355887832
2040,1.7054480409599233
2041,1.7361532349660245
2042,1.7670545108566609
2043,1.7981460577425532
2044,1.8294232421244672
2045,1.860880269908851
2046,1.8925129349394525
2047,1.9243115875486376
2048,1.9562681770699537
2049,1.988375358504711
2050,2.0205923401965804
2051,2.0528671222562695
2052,2.0851720246876124
2053,2.117502726337769
2054,2.1498550729418007
2055,2.1822246271553087
2056,2.2146043161379954
2057,2.246984619221859
2058,2.279356654155486
2059,2.3117131687952934
2060,2.3440339852674748
2061,2.3762986307108633
2062,2.4084902559987547
2063,2.440598540314114
2064,2.4726132732172417
2065,2.504522498347766
2066,2.536320426407838
2067,2.567998368671551
2068,2.599548684736092
2069,2.6309642767492454
2070,2.662232122336061
2071,2.6933364513012505
2072,2.724263291437512
2073,2.7550031045801133
2074,2.7855470400525344
2075,2.815885841706853
2076,2.8460144827471088
2077,2.875921844751318
2078,2.9055982667780627
2079,2.935034599691441
2080,2.9642307138074626
2081,2.993218215730795
2082,3.0220075323748454
2083,3.050593330806295
2084,3.078970368469176
2085,3.107129199686417
2086,3.1350693480688325
2087,3.1627846346083217
2088,3.1902678792176915
2089,3.217514120843642
2090,3.2445017254615465
2091,3.271204988230555
2092,3.2976098186443656
2093,3.323717498349452
2094,3.349529700289747
2095,3.3750427628411495
2096,3.400264236973369
2097,3.4251935971202103
2098,3.4498300923764345
2099,3.474173345235311
2100,3.498208298919623
