time,temp
1950,0.2
1951,0.2046260133720109
1952,0.20935123312214257
1953,0.21418754215073657
1954,0.21911175040108802
1955,0.22410958630915123
1956,0.22915754966805646
1957,0.23423962394739534
1958,0.23939760614979297
1959,0.24468532061030968
1960,0.25022390471313055
1961,0.25588896124925137
1962,0.26163852534827126
1963,0.26754193409810656
1964,0.2735997619830699
1965,0.27983153196996363
1966,0.28624697415267547
1967,0.2928102889713446
1968,0.29952164000479137
1969,0.30645729412370554
1970,0.3137493684578319
1971,0.32137384080266324
1972,0.3291504699540135
1973,0.33703549776145375
1974,0.34506580406630144
1975,0.35322722600510253
1976,0.36150581156750994
1977,0.36993808703195974
1978,0.37861774993862085
1979,0.3876103231657101
1980,0.3968412468767348
1981,0.4062831651690069
1982,0.41603560905439113
1983,0.4261099587036244
1984,0.4365859519137526
1985,0.4475672739520039
1986,0.4590975316781427
1987,0.4711915061504284
1988,0.48391949491393343
1989,0.497392835057577
1990,0.5116107464459091
1991,0.5265526954211578
1992,0.5421219045238503
1993,0.558326975699205
1994,0.5751733170901306
1995,0.5926846692302137
1996,0.6108027923743885
1997,0.6292476655260661
1998,0.6478320568381558
1999,0.6665879462588654
2000,0.6854511323100421
2001,0.7045403610789156
2002,0.7240014942200759
2003,0.7438276699462222
2004,0.764002169693954
2005,0.7845900597525131
2006,0.8057569492571502
2007,0.8275293416054628
2008,0.8498395604151251
2009,0.8727624655935021
2010,0.896123757585933
2011,0.9197903118364934
2012,0.9437156010924752
2013,0.9678919462254837
2014,0.9922996885204068
2015,1.016935007333296
2016,1.0417792434705593
2017,1.0668345238421024
2018,1.0920986439164502
2019,1.1175702594335317
2020,1.143268366503771
2021,1.1692260135028039
2022,1.195458670488271
2023,1.2219616378477556
2024,1.2487302728947987
2025,1.2757602530617163
2026,1.3030465387861778
2027,1.3305823294566295
2028,1.3583598149242966
2029,1.3863716096310146
2030,1.4146388306348772
2031,1.443217239831697
2032,1.4721287244347856
2033,1.5013650069999844
2034,1.5309177684925201
2035,1.5607759092305487
2036,1.5909352125728609
2037,1.621387631769874
2038,1.6521259761099911
2039,1.68314292838505
2040,1.7144186638354577
2041,1.7459313132876033
2042,1.7776664023522022
2043,1.809617264420515
2044,1.8417785869607197
2045,1.8741441230330427
2046,1.9067092480950567
2047,1.93946401102577
2048,1.9724001440137464
2049,2.0055101669342617
2050,2.0387526701626797
2051,2.0720750729726474
2052,2.105449233491919
2053,2.1388704630692277
2054,2.172334296937432
2055,2.2058360217049353
2056,2.2393683394142796
2057,2.272921525937131
2058,2.306486499603403
2059,2.340055809804519
2060,2.373608509164953
2061,2.407123341950106
2062,2.440582740152559
2063,2.4739756948709246
2064,2.50729131094585
2065,2.5405169659921705
2066,2.573646147832926
2067,2.6066726899800137
2068,2.639590772775292
2069,2.6723945392647357
2070,2.705071936503365
2071,2.73760768477307
2072,2.7699880919051703
2073,2.802203670682564
2074,2.8342454011334914
2075,2.8661036673818128
2076,2.897772844660642
2077,2.9292410214478495
2078,2.9604975548241965
2079,2.9915321357643405
2080,3.022342750453755
2081,3.052958906078161
2082,3.083388910833493
2083,3.1136252504415074
2084,3.1436604103450136
2085,3.1734826074018168
2086,3.2030888952655028
2087,3.2324705274998404
2088,3.261617665988259
2089,3.2905226093437476
2090,3.319162419613651
2091,3.3475099946387794
2092,3.375549853692584
2093,3.403281882492537
2094,3.430706338004856
2095,3.4578181312084033
2096,3.484623330494711
2097,3.5111198958825125
2098,3.5373055289700437
2099,3.5631782715574802
2100,3.5887227472871013
